r/R,twist (deg)
0.0411523,16.4567
0.0685871,17.5
0.0953361,18.5172
0.11797,19.3779
0.13786,20.1343
0.155693,20.8124
0.176269,21.5948
0.200274,22.5077
0.223594,23.3945
0.250343,24.4117
0.27572,25.3767
0.300412,26.2712
0.324417,24.7195
0.349794,23.3106
0.378601,21.9402
0.415638,20.4574
0.455418,19.1334
0.497257,17.9695
0.532922,17.1216
0.576818,16.222
0.611111,15.6091
0.652263,14.9587
0.688615,14.4488
0.766804,13.5159
0.844307,12.7617
0.921811,12.1344
1.0,11.6
