r/R,twist (deg)
0.0,17.0
0.04715,22.0
0.088145,30.0
0.15,37.86
0.2,45.82
0.25,44.19
0.3,38.35
0.35,33.64
0.4,29.9
0.45,27.02
0.5,24.67
0.55,22.62
0.6,20.88
0.65,19.36
0.7,17.98
0.75,16.74
0.8,15.79
0.85,14.64
0.9,13.86
0.95,12.72
1.0,11.53
